# Pulseq sequence file
# Created by PyPulseq

[VERSION]
major 1
minor 4
revision 2

[DEFINITIONS]
AdcRasterTime 1e-07 
BlockDurationRaster 1e-05 
GradientRasterTime 1e-05 
RadiofrequencyRasterTime 1e-06 

# Format of blocks:
# NUM DUR RF  GX  GY  GZ  ADC  EXT
[BLOCKS]
   1  10   1   0   0   0  0  0
   2 489   0   0   0   1  0  0
   3  16   2   0   0   0  0  0
   4 984   0   2   2   3  0  0
   5  16   2   0   0   0  0  0
   6 984   0   2   2   3  0  0
   7  16   2   0   0   0  0  0
   8 984   0   2   2   3  0  0
   9  16   2   0   0   0  0  0
  10 984   0   2   2   3  0  0
  11  16   2   0   0   0  0  0
  12 984   0   2   2   3  0  0
  13  16   2   0   0   0  0  0
  14 984   0   2   2   3  0  0
  15  16   2   0   0   0  0  0
  16 984   0   2   2   3  0  0
  17  16   2   0   0   0  0  0
  18 984   0   2   2   3  0  0
  19  16   2   0   0   0  0  0
  20 984   0   2   2   3  0  0
  21  16   2   0   0   0  0  0
  22 984   0   2   2   3  0  0
  23  16   2   0   0   0  0  0
  24 984   0   2   2   3  0  0
  25  16   2   0   0   0  0  0
  26 984   0   2   2   3  0  0
  27  16   2   0   0   0  0  0
  28 984   0   2   2   3  0  0
  29  16   2   0   0   0  0  0
  30 984   0   2   2   3  0  0
  31  16   2   0   0   0  0  0
  32 984   0   2   2   3  0  0
  33  16   2   0   0   0  0  0
  34 984   0   2   2   3  0  0
  35  16   2   0   0   0  0  0
  36 984   0   2   2   3  0  0
  37  16   2   0   0   0  0  0
  38 984   0   2   2   3  0  0
  39  16   2   0   0   0  0  0
  40 984   0   2   2   3  0  0
  41  16   2   0   0   0  0  0
  42 984   0   2   2   3  0  0
  43 9501   0   0   0   0  0  0
  44  10   1   0   0   0  0  0
  45 489   0   0   0   1  0  0
  46  16   2   0   0   0  0  0
  47 984   0   4   5   3  1  0
  48  16   2   0   0   0  0  0
  49 984   0   4   5   3  1  0
  50  16   2   0   0   0  0  0
  51 984   0   4   5   3  1  0
  52  16   2   0   0   0  0  0
  53 984   0   4   5   3  1  0
  54  16   2   0   0   0  0  0
  55 984   0   4   5   3  1  0
  56  16   2   0   0   0  0  0
  57 984   0   4   5   3  1  0
  58  16   2   0   0   0  0  0
  59 984   0   4   5   3  1  0
  60  16   2   0   0   0  0  0
  61 984   0   4   5   3  1  0
  62  16   2   0   0   0  0  0
  63 984   0   4   5   3  1  0
  64  16   2   0   0   0  0  0
  65 984   0   4   5   3  1  0
  66  16   2   0   0   0  0  0
  67 984   0   4   5   3  1  0
  68  16   2   0   0   0  0  0
  69 984   0   4   5   3  1  0
  70  16   2   0   0   0  0  0
  71 984   0   4   5   3  1  0
  72  16   2   0   0   0  0  0
  73 984   0   4   5   3  1  0
  74  16   2   0   0   0  0  0
  75 984   0   4   5   3  1  0
  76  16   2   0   0   0  0  0
  77 984   0   4   5   3  1  0
  78  16   2   0   0   0  0  0
  79 984   0   4   5   3  1  0
  80  16   2   0   0   0  0  0
  81 984   0   4   5   3  1  0
  82  16   2   0   0   0  0  0
  83 984   0   4   5   3  1  0
  84  16   2   0   0   0  0  0
  85 984   0   4   5   3  1  0
  86 9501   0   0   0   0  0  0
  87  10   1   0   0   0  0  0
  88 489   0   0   0   1  0  0
  89  16   2   0   0   0  0  0
  90 984   0   4   6   3  1  0
  91  16   2   0   0   0  0  0
  92 984   0   4   6   3  1  0
  93  16   2   0   0   0  0  0
  94 984   0   4   6   3  1  0
  95  16   2   0   0   0  0  0
  96 984   0   4   6   3  1  0
  97  16   2   0   0   0  0  0
  98 984   0   4   6   3  1  0
  99  16   2   0   0   0  0  0
 100 984   0   4   6   3  1  0
 101  16   2   0   0   0  0  0
 102 984   0   4   6   3  1  0
 103  16   2   0   0   0  0  0
 104 984   0   4   6   3  1  0
 105  16   2   0   0   0  0  0
 106 984   0   4   6   3  1  0
 107  16   2   0   0   0  0  0
 108 984   0   4   6   3  1  0
 109  16   2   0   0   0  0  0
 110 984   0   4   6   3  1  0
 111  16   2   0   0   0  0  0
 112 984   0   4   6   3  1  0
 113  16   2   0   0   0  0  0
 114 984   0   4   6   3  1  0
 115  16   2   0   0   0  0  0
 116 984   0   4   6   3  1  0
 117  16   2   0   0   0  0  0
 118 984   0   4   6   3  1  0
 119  16   2   0   0   0  0  0
 120 984   0   4   6   3  1  0
 121  16   2   0   0   0  0  0
 122 984   0   4   6   3  1  0
 123  16   2   0   0   0  0  0
 124 984   0   4   6   3  1  0
 125  16   2   0   0   0  0  0
 126 984   0   4   6   3  1  0
 127  16   2   0   0   0  0  0
 128 984   0   4   6   3  1  0
 129 9501   0   0   0   0  0  0
 130  10   1   0   0   0  0  0
 131 489   0   0   0   1  0  0
 132  16   2   0   0   0  0  0
 133 984   0   4   7   3  1  0
 134  16   2   0   0   0  0  0
 135 984   0   4   7   3  1  0
 136  16   2   0   0   0  0  0
 137 984   0   4   7   3  1  0
 138  16   2   0   0   0  0  0
 139 984   0   4   7   3  1  0
 140  16   2   0   0   0  0  0
 141 984   0   4   7   3  1  0
 142  16   2   0   0   0  0  0
 143 984   0   4   7   3  1  0
 144  16   2   0   0   0  0  0
 145 984   0   4   7   3  1  0
 146  16   2   0   0   0  0  0
 147 984   0   4   7   3  1  0
 148  16   2   0   0   0  0  0
 149 984   0   4   7   3  1  0
 150  16   2   0   0   0  0  0
 151 984   0   4   7   3  1  0
 152  16   2   0   0   0  0  0
 153 984   0   4   7   3  1  0
 154  16   2   0   0   0  0  0
 155 984   0   4   7   3  1  0
 156  16   2   0   0   0  0  0
 157 984   0   4   7   3  1  0
 158  16   2   0   0   0  0  0
 159 984   0   4   7   3  1  0
 160  16   2   0   0   0  0  0
 161 984   0   4   7   3  1  0
 162  16   2   0   0   0  0  0
 163 984   0   4   7   3  1  0
 164  16   2   0   0   0  0  0
 165 984   0   4   7   3  1  0
 166  16   2   0   0   0  0  0
 167 984   0   4   7   3  1  0
 168  16   2   0   0   0  0  0
 169 984   0   4   7   3  1  0
 170  16   2   0   0   0  0  0
 171 984   0   4   7   3  1  0
 172 9501   0   0   0   0  0  0
 173  10   1   0   0   0  0  0
 174 489   0   0   0   1  0  0
 175  16   2   0   0   0  0  0
 176 984   0   4   8   3  1  0
 177  16   2   0   0   0  0  0
 178 984   0   4   8   3  1  0
 179  16   2   0   0   0  0  0
 180 984   0   4   8   3  1  0
 181  16   2   0   0   0  0  0
 182 984   0   4   8   3  1  0
 183  16   2   0   0   0  0  0
 184 984   0   4   8   3  1  0
 185  16   2   0   0   0  0  0
 186 984   0   4   8   3  1  0
 187  16   2   0   0   0  0  0
 188 984   0   4   8   3  1  0
 189  16   2   0   0   0  0  0
 190 984   0   4   8   3  1  0
 191  16   2   0   0   0  0  0
 192 984   0   4   8   3  1  0
 193  16   2   0   0   0  0  0
 194 984   0   4   8   3  1  0
 195  16   2   0   0   0  0  0
 196 984   0   4   8   3  1  0
 197  16   2   0   0   0  0  0
 198 984   0   4   8   3  1  0
 199  16   2   0   0   0  0  0
 200 984   0   4   8   3  1  0
 201  16   2   0   0   0  0  0
 202 984   0   4   8   3  1  0
 203  16   2   0   0   0  0  0
 204 984   0   4   8   3  1  0
 205  16   2   0   0   0  0  0
 206 984   0   4   8   3  1  0
 207  16   2   0   0   0  0  0
 208 984   0   4   8   3  1  0
 209  16   2   0   0   0  0  0
 210 984   0   4   8   3  1  0
 211  16   2   0   0   0  0  0
 212 984   0   4   8   3  1  0
 213  16   2   0   0   0  0  0
 214 984   0   4   8   3  1  0
 215 9501   0   0   0   0  0  0
 216  10   1   0   0   0  0  0
 217 489   0   0   0   1  0  0
 218  16   2   0   0   0  0  0
 219 984   0   4   9   3  1  0
 220  16   2   0   0   0  0  0
 221 984   0   4   9   3  1  0
 222  16   2   0   0   0  0  0
 223 984   0   4   9   3  1  0
 224  16   2   0   0   0  0  0
 225 984   0   4   9   3  1  0
 226  16   2   0   0   0  0  0
 227 984   0   4   9   3  1  0
 228  16   2   0   0   0  0  0
 229 984   0   4   9   3  1  0
 230  16   2   0   0   0  0  0
 231 984   0   4   9   3  1  0
 232  16   2   0   0   0  0  0
 233 984   0   4   9   3  1  0
 234  16   2   0   0   0  0  0
 235 984   0   4   9   3  1  0
 236  16   2   0   0   0  0  0
 237 984   0   4   9   3  1  0
 238  16   2   0   0   0  0  0
 239 984   0   4   9   3  1  0
 240  16   2   0   0   0  0  0
 241 984   0   4   9   3  1  0
 242  16   2   0   0   0  0  0
 243 984   0   4   9   3  1  0
 244  16   2   0   0   0  0  0
 245 984   0   4   9   3  1  0
 246  16   2   0   0   0  0  0
 247 984   0   4   9   3  1  0
 248  16   2   0   0   0  0  0
 249 984   0   4   9   3  1  0
 250  16   2   0   0   0  0  0
 251 984   0   4   9   3  1  0
 252  16   2   0   0   0  0  0
 253 984   0   4   9   3  1  0
 254  16   2   0   0   0  0  0
 255 984   0   4   9   3  1  0
 256  16   2   0   0   0  0  0
 257 984   0   4   9   3  1  0
 258 9501   0   0   0   0  0  0
 259  10   1   0   0   0  0  0
 260 489   0   0   0   1  0  0
 261  16   2   0   0   0  0  0
 262 984   0   4  10   3  1  0
 263  16   2   0   0   0  0  0
 264 984   0   4  10   3  1  0
 265  16   2   0   0   0  0  0
 266 984   0   4  10   3  1  0
 267  16   2   0   0   0  0  0
 268 984   0   4  10   3  1  0
 269  16   2   0   0   0  0  0
 270 984   0   4  10   3  1  0
 271  16   2   0   0   0  0  0
 272 984   0   4  10   3  1  0
 273  16   2   0   0   0  0  0
 274 984   0   4  10   3  1  0
 275  16   2   0   0   0  0  0
 276 984   0   4  10   3  1  0
 277  16   2   0   0   0  0  0
 278 984   0   4  10   3  1  0
 279  16   2   0   0   0  0  0
 280 984   0   4  10   3  1  0
 281  16   2   0   0   0  0  0
 282 984   0   4  10   3  1  0
 283  16   2   0   0   0  0  0
 284 984   0   4  10   3  1  0
 285  16   2   0   0   0  0  0
 286 984   0   4  10   3  1  0
 287  16   2   0   0   0  0  0
 288 984   0   4  10   3  1  0
 289  16   2   0   0   0  0  0
 290 984   0   4  10   3  1  0
 291  16   2   0   0   0  0  0
 292 984   0   4  10   3  1  0
 293  16   2   0   0   0  0  0
 294 984   0   4  10   3  1  0
 295  16   2   0   0   0  0  0
 296 984   0   4  10   3  1  0
 297  16   2   0   0   0  0  0
 298 984   0   4  10   3  1  0
 299  16   2   0   0   0  0  0
 300 984   0   4  10   3  1  0
 301 9501   0   0   0   0  0  0
 302  10   1   0   0   0  0  0
 303 489   0   0   0   1  0  0
[RF]
1      4166.67 1 2 3 20 0 1.5708
2      4166.67 1 2 4 20 0 0

# Format of arbitrary gradients:
#   time_shape_id of 0 means default timing (stepping with grad_raster starting at 1/2 of grad_raster)
# id amplitude amp_shape_id time_shape_id delay
# ..      Hz/m       ..         ..          us
[GRADIENTS]
2            0 5 6 0
3       125000 7 6 0
4     -33068.8 8 6 0
5     -99206.3 8 6 0
6     -95899.5 8 6 0
7     -92592.6 8 6 0
8     -89285.7 8 6 0
9     -85978.8 8 6 0
10       -82672 8 6 0
11     -79365.1 8 6 0
12     -76058.2 8 6 0
13     -72751.3 8 6 0
14     -69444.4 8 6 0
15     -66137.6 8 6 0
16     -62830.7 8 6 0
17     -59523.8 8 6 0
18     -56216.9 8 6 0
19     -52910.1 8 6 0
20     -49603.2 8 6 0
21     -46296.3 8 6 0
22     -42989.4 8 6 0
23     -39682.5 8 6 0
24     -36375.7 8 6 0
25     -29761.9 8 6 0
26       -26455 8 6 0
27     -23148.1 8 6 0
28     -19841.3 8 6 0
29     -16534.4 8 6 0
30     -13227.5 8 6 0
31     -9920.63 8 6 0
32     -6613.76 8 6 0
33     -3306.88 8 6 0
34      3306.88 8 6 0
35      6613.76 8 6 0
36      9920.63 8 6 0
37      13227.5 8 6 0
38      16534.4 8 6 0
39      19841.3 8 6 0
40      23148.1 8 6 0
41        26455 8 6 0
42      29761.9 8 6 0
43      33068.8 8 6 0
44      36375.7 8 6 0
45      39682.5 8 6 0
46      42989.4 8 6 0
47      46296.3 8 6 0
48      49603.2 8 6 0
49      52910.1 8 6 0
50      56216.9 8 6 0
51      59523.8 8 6 0
52      62830.7 8 6 0
53      66137.6 8 6 0
54      69444.4 8 6 0
55      72751.3 8 6 0
56      76058.2 8 6 0
57      79365.1 8 6 0
58        82672 8 6 0
59      85978.8 8 6 0
60      89285.7 8 6 0
61      92592.6 8 6 0
62      95899.5 8 6 0

# Format of trapezoid gradients:
# id amplitude rise flat fall delay
# ..      Hz/m   us   us   us    us
[TRAP]
 1       353571 400 1000 400   0

# Format of ADC events:
# id num dwell delay freq phase
# ..  ..    ns    us   Hz   rad
[ADC]
1 400 13333 2253 0 0

# Sequence Shapes
[SHAPES]

shape_id 1
num_samples 2
1
1

shape_id 2
num_samples 2
0
0

shape_id 3
num_samples 2
0
60

shape_id 4
num_samples 2
0
120

shape_id 5
num_samples 8
0
0
6

shape_id 6
num_samples 8
0
40
252
292
692
732
944
984

shape_id 7
num_samples 8
0
0.698412698
0.698412698
1
1
0.698412698
0.698412698
0

shape_id 8
num_samples 8
0
1
1
0
0
-1
-1
0


[SIGNATURE]
# This is the hash of the Pulseq file, calculated right before the [SIGNATURE] section was added
# It can be reproduced/verified with md5sum if the file trimmed to the position right above [SIGNATURE]
# The new line character preceding [SIGNATURE] BELONGS to the signature (and needs to be stripped away for recalculating/verification)
Type md5
Hash cf2d8e99bc4500d67a2f9de4f25d9e2b
